Temperature,A1,B1,C1,D1,E1,F1,G1,Manuel
65,40.57561578,72.15985166,280.6737842,28.96122175,15.12268933,1.567999767,1.411481905,106.0739836
65.5,87.91383419,156.3463453,608.1265323,62.74931379,32.76582687,3.397332829,3.058210795,229.8269644
66,81.15123156,144.3197033,561.3475683,57.92244349,30.24537865,3.135999535,2.82296381,212.1479671
66.5,81.15123156,144.3197033,561.3475683,57.92244349,30.24537865,3.135999535,2.82296381,212.1479671
67,81.15123156,144.3197033,561.3475683,57.92244349,30.24537865,3.135999535,2.82296381,212.1479671
67.5,76.67480285,144.4468328,559.537933,58.25050101,30.22179249,3.209967186,2.88816602,205.3135611
68,102.5210174,143.4901374,570.738552,56.17847243,30.48177199,2.686050995,2.439118679,246.4982344
68.5,165.8926175,143.0257926,592.6476859,52.62118209,30.06964117,2.157372339,1.834727971,335.1321788
69,238.0838596,144.1556328,607.3636067,49.50365835,28.90887786,2.681185467,2.548823949,410.8730754
69.5,315.7754436,142.679889,618.5653142,45.67782351,27.50552804,2.922478636,3.068376582,474.4110713
70,395.1847019,140.7362998,630.1097477,42.9775408,26.39038188,2.065033769,2.642486374,517.6859954
70.5,471.7739617,143.2451408,640.9064252,40.62708718,25.15741544,1.94931287,2.750656525,547.3969303
71,536.550674,144.3994229,650.7647376,38.09426677,24.10476476,2.659183245,3.060479418,572.2230411
71.5,587.1282405,144.8699008,665.9043865,36.59182054,23.14015875,2.435841557,2.664001399,584.6814485
72,627.3813815,149.7138591,701.7799403,35.77480703,22.51035322,2.154070136,2.137171121,591.5070973
72.5,656.3318269,155.0510057,791.276253,34.41197545,22.29663927,2.769591523,2.568458858,605.7483112
73,682.9488691,159.2732194,1033.347544,33.67568502,21.77226228,3.330736078,2.912764954,623.981071
73.5,730.9902464,166.6660989,1559.595397,32.72044591,21.22903516,3.407893631,2.878746435,655.09025
74,864.6618585,176.7414403,2236.113488,30.36107927,20.4926806,3.663848658,3.313336556,743.9000247
74.5,1074.358298,187.8180107,2845.30425,28.4445694,20.07851763,3.463413312,3.40153773,979.164272
75,1285.687288,201.5656472,3315.081592,26.66163665,19.36804532,2.773788135,2.849587201,1459.331969
75.5,1476.67629,216.2185438,3448.693864,24.4474217,17.70890846,2.415178269,2.831269988,2168.380608
76,1615.654031,230.5906902,2980.793102,23.1891646,16.22189957,2.110628476,3.400865809,2933.107763
76.5,1572.749606,242.6766469,2166.644992,22.46397201,15.59949552,1.713193417,3.326389025,3572.069703
77,1367.89062,250.6983228,1396.544197,20.93021689,14.49189675,2.120940035,3.199887496,3891.814997
77.5,1153.515168,254.970852,711.8391565,20.01725072,12.91576681,2.54739904,3.423221105,3686.619312
78,953.8800775,257.6712458,207.9521024,19.29614747,12.39304335,2.397774461,2.971218552,2986.11022
78.5,785.6196796,258.5089414,19.16307178,18.02790034,12.16416732,2.594573659,1.980847716,2095.109199
79,720.7597168,258.8323515,19.19331627,17.55166687,11.47776353,3.005361238,1.894382192,1263.455927
79.5,751.2994387,261.2145804,19.80665145,17.28678036,10.74161929,2.971607896,2.4825766,604.5690466
80,808.1523021,264.834198,18.91261296,15.81780128,9.69955246,2.935709098,2.564229191,219.2889015
80.5,886.7096601,270.7370544,18.89767609,15.07083267,8.813383677,2.760412915,2.825878285,94.49195127
81,975.8368129,280.2068721,18.25672627,14.78831611,7.61403499,2.31378821,3.513611168,85.64185515
81.5,1059.468211,294.6340738,18.2190923,13.32481457,5.902181223,2.263741252,3.226056316,86.56028691
82,1123.235735,312.458448,18.77513644,12.20704196,3.819793819,1.906108685,2.336360675,85.99369245
82.5,1143.548847,329.6181969,18.44262657,12.20415866,1.778676322,1.571876378,2.390171147,85.89968836
83,1111.589773,342.7085291,17.92093535,11.57529485,-0.902366702,2.255889504,2.801497955,85.87085266
83.5,1049.743801,348.6751348,17.6057847,10.22315508,-3.671009121,2.878671404,2.663622511,83.89587963
84,972.4119497,343.3780135,16.93298644,9.971817415,-5.906321224,2.572974524,2.946398387,80.55481112
84.5,889.4135654,329.1538218,16.69433433,9.574978364,-7.576294734,2.87281619,3.517515464,77.80254238
85,822.3464438,313.3268799,16.78957238,8.746734411,-8.498297777,3.133390423,3.072055206,73.86042465
85.5,772.0270426,296.5769836,16.61762708,7.999314344,-8.983087764,2.148961883,2.311741239,68.44391498
86,714.5311818,281.5389157,16.50565755,7.322670917,-9.563407198,1.299325442,1.747347902,64.60891775
86.5,646.3913104,271.2477927,16.18027182,6.489641702,-9.798842105,1.233311126,1.471780271,60.75702769
87,576.5728154,261.9652287,15.79077326,5.955726016,-8.937117655,1.188806602,1.530901459,55.27417935
87.5,503.8785208,250.2040024,15.51727051,4.853297041,-7.523667079,1.35265561,1.824018283,50.84763667
88,436.8554247,237.2466979,14.89557609,4.077999493,-5.371011942,2.025314511,2.049207069,48.07796034
88.5,388.1614932,223.9123452,14.32733026,4.516770493,-2.45253296,2.50329617,2.336046913,45.44001469
89,356.9612996,210.5175067,14.55318708,4.369044373,0.541670912,2.716910543,2.661515984,43.80071689
89.5,335.9061279,198.6311304,14.47891757,3.65821926,2.311085134,2.216487084,2.336361049,42.33069489
90,322.098668,189.1519778,14.52263399,4.017093422,3.002170927,1.580330228,2.092591728,40.68844865
90.5,310.4535393,181.9365219,15.16049269,3.98432122,2.240096231,1.413467569,1.913450159,39.13248963
91,298.0845253,175.9302571,15.965599,2.487956282,0.626228117,1.428111447,2.128151057,37.27881351
91.5,286.3581171,170.4386559,16.18207134,1.534491371,-1.838169791,1.478587373,1.756249261,35.08039118
92,275.6262406,165.0345131,16.34863531,1.321860108,-4.862520915,2.139045374,1.394801265,34.15209254
92.5,263.8555359,159.3119834,16.39461075,0.71004244,-8.424472019,2.956543846,1.750863979,33.61437229
93,253.1577933,153.862961,16.4018818,-0.204777295,-11.92724903,3.072949382,2.023893816,32.17674989
93.5,242.9108769,148.1780227,15.32510923,-0.463629317,-15.91634532,3.062985849,2.178616316,31.78097814
94,236.275392,144.3347765,14.67981996,-0.65291678,-18.71142318,3.150197401,2.427988,31.46292235
94.5,245.2199867,151.3807924,13.6796307,-1.482793729,-24.47672926,3.099120732,3.58061449,34.59150871
95,108.9628549,68.07565458,5.009149096,-1.016398695,-13.05162718,1.222644051,1.815786909,16.35156655
